#log(T) Bolometric correction
3.4122, -4.3946
3.4732, -2.9596
3.5502, -1.7265
3.6555, -0.6390
3.7305, -0.2242
3.8539, -0.1345
3.9928, -0.4148
4.1349, -1.0987
4.2361, -1.6816
4.3778, -2.5224
4.5234, -3.4305
4.6447, -4.2040
4.7051, -4.6749
